# Dihedral Angle (Degree),  Occurrence1,  Occurrence2
1.000000000,  71.05543815,  77.00381702
3.000000000,  71.09647948,  76.53905947
5.000000000,  71.36854082,  76.89196730
7.000000000,  72.27435618,  77.59834877
9.000000000,  72.55887715,  77.08457124
11.00000000,  73.22732601,  77.48129728
13.00000000,  73.61180723,  78.13394258
15.00000000,  73.41557824,  78.40652431
17.00000000,  74.43869215,  79.51275238
19.00000000,  74.96375329,  78.99069509
21.00000000,  76.14926429,  80.18402137
23.00000000,  77.30904774,  81.46374940
25.00000000,  78.13151303,  83.30603161
27.00000000,  80.25323821,  84.47541680
29.00000000,  82.12626719,  87.15086359
31.00000000,  85.46534372,  88.97409622
33.00000000,  88.12033883,  90.60152618
35.00000000,  90.68097389,  93.84776094
37.00000000,  93.76656160,  96.46743488
39.00000000,  96.39327948,  99.10565370
41.00000000,  98.45910991,  100.5003063
43.00000000,  101.7547931,  102.3266376
45.00000000,  105.5948238,  106.7726187
47.00000000,  107.3525677,  107.9819449
49.00000000,  109.8227691,  110.7734843
51.00000000,  112.6192962,  114.2492665
53.00000000,  115.3618808,  115.5834674
55.00000000,  115.9813848,  116.7843616
57.00000000,  117.1946845,  118.5226135
59.00000000,  119.0206077,  118.3382909
61.00000000,  118.7452073,  117.8511948
63.00000000,  116.2612670,  117.1496254
65.00000000,  114.7458785,  114.4197298
67.00000000,  113.5154600,  113.3019171
69.00000000,  110.6117480,  111.7946177
71.00000000,  106.7217310,  107.9244578
73.00000000,  103.7885245,  104.8068004
75.00000000,  98.83504075,  100.3531703
77.00000000,  94.89391327,  96.77686281
79.00000000,  90.48911731,  92.09718213
81.00000000,  86.89595658,  89.11379160
83.00000000,  82.73247616,  86.18276497
85.00000000,  79.55278496,  82.44470506
87.00000000,  78.12194819,  80.59241293
89.00000000,  76.27637945,  77.97945177
91.00000000,  74.72632506,  77.76260198
93.00000000,  76.07255289,  77.23078554
95.00000000,  77.42995614,  77.94882092
97.00000000,  80.52053130,  80.98942983
99.00000000,  84.01269521,  84.30830119
101.0000000,  88.93090205,  87.05406810
103.0000000,  94.21657612,  91.12239130
105.0000000,  102.1412944,  97.02387373
107.0000000,  108.2092746,  103.0359592
109.0000000,  114.9809927,  108.9246335
111.0000000,  121.5795677,  114.0235316
113.0000000,  128.5234530,  119.0071128
115.0000000,  134.1847114,  123.8011214
117.0000000,  138.3820773,  126.6723572
119.0000000,  140.7665600,  128.6283737
121.0000000,  142.5921877,  129.1698102
123.0000000,  143.0450395,  128.4354508
125.0000000,  142.1236416,  126.5889956
127.0000000,  139.3822119,  124.1981933
129.0000000,  135.4623738,  121.5505218
131.0000000,  130.1254187,  116.8370080
133.0000000,  124.2519471,  112.9136502
135.0000000,  118.1135348,  109.0701555
137.0000000,  114.0175651,  105.2648565
139.0000000,  109.3701134,  100.7124740
141.0000000,  103.9823457,  95.80220166
143.0000000,  100.2124055,  93.67475597
145.0000000,  95.74902497,  89.84081478
147.0000000,  94.19750437,  88.01633308
149.0000000,  90.77101321,  87.07957437
151.0000000,  89.38858785,  86.93348332
153.0000000,  89.35889756,  86.93236484
155.0000000,  89.19692727,  87.27221552
157.0000000,  89.04436867,  89.60365931
159.0000000,  91.48987520,  92.50329623
161.0000000,  93.94021235,  94.41538320
163.0000000,  97.19014265,  97.76373418
165.0000000,  99.56961893,  100.6491853
167.0000000,  102.8303259,  103.9488208
169.0000000,  106.3641009,  108.5380163
171.0000000,  109.0975373,  111.2362380
173.0000000,  111.8853891,  112.9352922
175.0000000,  114.6347597,  116.3320320
177.0000000,  116.3923402,  117.3455754
179.0000000,  117.3472575,  118.3208776
181.0000000,  118.2627581,  118.1346919
183.0000000,  118.6745308,  118.1289454
185.0000000,  116.9581726,  116.5034825
187.0000000,  114.8601451,  113.6857647
189.0000000,  112.1100454,  111.1339220
191.0000000,  109.5773667,  107.7225782
193.0000000,  106.5638647,  103.9979483
195.0000000,  102.6216482,  101.5135577
197.0000000,  100.7611558,  98.03435277
199.0000000,  97.56236989,  95.26089945
201.0000000,  94.88219978,  92.63420719
203.0000000,  93.12156863,  89.60697096
205.0000000,  90.89451699,  88.22535220
207.0000000,  90.36115984,  88.01127667
209.0000000,  89.72443437,  87.79340448
211.0000000,  90.80715621,  88.18647555
213.0000000,  93.06207701,  89.24038064
215.0000000,  94.86554901,  91.58007611
217.0000000,  97.29631046,  93.87911280
219.0000000,  101.1871244,  97.53128541
221.0000000,  104.7821063,  101.4832382
223.0000000,  109.8553346,  106.8716941
225.0000000,  115.4315922,  111.4108225
227.0000000,  119.1053598,  115.5106165
229.0000000,  125.1925275,  120.9313194
231.0000000,  129.6456557,  124.8092858
233.0000000,  132.0695086,  129.5844691
235.0000000,  135.4397601,  132.5304372
237.0000000,  135.9879530,  135.0601563
239.0000000,  136.3091245,  135.4603820
241.0000000,  135.7542420,  134.3787572
243.0000000,  132.9885752,  133.5357467
245.0000000,  129.2648592,  130.3161978
247.0000000,  123.7399513,  125.8231652
249.0000000,  118.0890682,  120.7133355
251.0000000,  112.0018873,  114.4355991
253.0000000,  105.6549861,  107.5486491
255.0000000,  99.20601661,  102.9884686
257.0000000,  94.17747413,  97.20911919
259.0000000,  89.61243772,  92.62136813
261.0000000,  84.91020431,  87.33519093
263.0000000,  82.01873765,  84.00289033
265.0000000,  78.43400399,  81.58731032
267.0000000,  78.34491109,  80.11750666
269.0000000,  77.93344994,  79.80428243
271.0000000,  78.12848532,  80.37160028
273.0000000,  79.77610100,  81.44928814
275.0000000,  82.42291417,  83.88034333
277.0000000,  85.81389055,  87.23179022
279.0000000,  89.54252367,  90.96476650
281.0000000,  93.83947578,  94.00217114
283.0000000,  97.04078433,  98.80959429
285.0000000,  101.1152941,  102.1066638
287.0000000,  105.7559340,  106.9322144
289.0000000,  109.4447177,  108.9690613
291.0000000,  112.2144346,  112.4151492
293.0000000,  115.6990457,  115.4575595
295.0000000,  117.6970238,  118.4332701
297.0000000,  119.0453924,  118.8360813
299.0000000,  118.5942467,  119.5092519
301.0000000,  118.0071326,  119.7035101
303.0000000,  117.9036313,  119.4076355
305.0000000,  115.7251118,  118.6549311
307.0000000,  112.7455493,  116.5576276
309.0000000,  111.7910064,  115.6858416
311.0000000,  108.7979416,  112.9253274
313.0000000,  105.9880592,  110.5787249
315.0000000,  103.0511391,  107.6658760
317.0000000,  100.5877557,  104.3301183
319.0000000,  97.23007314,  101.4571414
321.0000000,  94.21705156,  98.33447204
323.0000000,  91.55182685,  96.31201766
325.0000000,  88.88082351,  94.12670727
327.0000000,  86.78700061,  91.64899792
329.0000000,  83.60727810,  88.84807528
331.0000000,  82.12481927,  86.15382859
333.0000000,  80.15727326,  84.98356472
335.0000000,  78.40662311,  82.93572328
337.0000000,  77.56410123,  81.45003866
339.0000000,  75.40959565,  80.60181471
341.0000000,  75.28294135,  79.22913483
343.0000000,  73.73186022,  78.34677673
345.0000000,  72.76940141,  77.54351473
347.0000000,  72.51463305,  77.56239466
349.0000000,  72.25405133,  77.12731284
351.0000000,  72.01709820,  77.53399786
353.0000000,  72.21269478,  76.00098385
355.0000000,  71.28853521,  76.17644601
357.0000000,  71.37960682,  76.64472119
359.0000000,  72.22107438,  75.96970644
